             f;      Abs(Zm);     Std(Abs);      Phi(Zm);     Std(Phi);       Re(Zm);       Im(Zm);     Time [s]
4.5000000e+004;      12.2195;       0.0049;    -0.006721;     0.000259;      12.2192;      -0.0821;   3492681772
3.9810717e+004;      12.3341;       0.0021;    -0.036757;     0.000177;      12.3258;      -0.4533;   3492681774
3.1622777e+004;      12.6157;       0.0014;    -0.087254;     0.000136;      12.5677;      -1.0994;   3492681775
2.5118864e+004;      12.9644;       0.0002;    -0.131596;     0.000045;      12.8523;      -1.7011;   3492681777
1.9952623e+004;      13.3872;       0.0015;    -0.171400;     0.000028;      13.1911;      -2.2834;   3492681779
1.5848932e+004;      13.8720;       0.0015;    -0.207699;     0.000037;      13.5739;      -2.8605;   3492681781
1.2589254e+004;      14.4268;       0.0008;    -0.241058;     0.000052;      14.0096;      -3.4441;   3492681783
1.0000000e+004;      15.0652;       0.0006;    -0.272293;     0.000009;      14.5102;      -4.0516;   3492681784
7.9432823e+003;      15.7821;       0.0014;    -0.301923;     0.000028;      15.0682;      -4.6929;   3492681786
6.3095734e+003;      16.5906;       0.0009;    -0.330171;     0.000019;      15.6945;      -5.3787;   3492681788
5.0118723e+003;      17.5039;       0.0013;    -0.356930;     0.000034;      16.4007;      -6.1159;   3492681790
3.9810717e+003;      18.5525;       0.0013;    -0.382252;     0.000049;      17.2135;      -6.9203;   3492681792
3.1622777e+003;      19.7286;       0.0019;    -0.406149;     0.000046;      18.1237;      -7.7943;   3492681793
2.5118864e+003;      21.0410;       0.0019;    -0.428682;     0.000013;      19.1371;      -8.7462;   3492681795
1.9952623e+003;      22.5215;       0.0008;    -0.449436;     0.000064;      20.2849;      -9.7846;   3492681797
1.5848932e+003;      24.1935;       0.0022;    -0.467940;     0.000022;      21.5927;     -10.9125;   3492681799
1.2589254e+003;      26.0458;       0.0012;    -0.484509;     0.000046;      23.0480;     -12.1314;   3492681801
1.0000000e+003;      28.1401;       0.0026;    -0.498426;     0.000036;      24.7164;     -13.4522;   3492681802
7.9432823e+002;      30.4253;       0.0025;    -0.510421;     0.000025;      26.5472;     -14.8641;   3492681804
6.3095734e+002;      32.8667;       0.0023;    -0.521605;     0.000016;      28.4961;     -16.3766;   3492681806
5.0118723e+002;      35.7011;       0.0024;    -0.528349;     0.000021;      30.8329;     -17.9972;   3492681808
3.9810717e+002;      38.6852;       0.0017;    -0.535141;     0.000051;      33.2769;     -19.7280;   3492681810
3.1622777e+002;      41.7982;       0.0026;    -0.542348;     0.000005;      35.8002;     -21.5741;   3492681811
2.5118864e+002;      45.3889;       0.0014;    -0.545959;     0.000029;      38.7907;     -23.5676;   3492681813
1.9952623e+002;      49.3843;       0.0017;    -0.547670;     0.000017;      42.1614;     -25.7144;   3492681815
1.5848932e+002;      53.4161;       0.0013;    -0.552068;     0.000035;      45.4807;     -28.0140;   3492681817
1.2589254e+002;      57.8538;       0.0016;    -0.555218;     0.000016;      49.1633;     -30.4964;   3492681819
1.0000000e+002;      63.1124;       0.0024;    -0.553935;     0.000003;      53.6746;     -33.1995;   3492681820
7.9432823e+001;      68.3583;       0.0033;    -0.555893;     0.000024;      58.0656;     -36.0728;   3492681822
6.3095734e+001;      74.1205;       0.0003;    -0.556234;     0.000019;      62.9468;     -39.1350;   3492681824
5.0118723e+001;      80.7650;       0.0008;    -0.552491;     0.000012;      68.7488;     -42.3862;   3492681826
3.9810717e+001;      87.4869;       0.0006;    -0.550134;     0.000019;      74.5786;     -45.7383;   3492681828
3.1622777e+001;      94.7526;       0.0007;    -0.545664;     0.000004;      80.9929;     -49.1752;   3492681830
2.5118864e+001;     102.5399;       0.0003;    -0.539219;     0.000017;      87.9905;     -52.6508;   3492681831
1.9952623e+001;     110.8165;       0.0011;    -0.531102;     0.000008;      95.5515;     -56.1268;   3492681833
1.5848932e+001;     119.5393;       0.0036;    -0.521485;     0.000003;     103.6502;     -59.5507;   3492681835
1.2589254e+001;     128.6504;       0.0033;    -0.510598;     0.000006;     112.2413;     -62.8714;   3492681837
1.0000000e+001;     138.1116;       0.0028;    -0.498697;     0.000008;     121.2906;     -66.0563;   3492681839
7.9432820e+000;     147.8955;       0.0016;    -0.485924;     0.000014;     130.7756;     -69.0710;   3492681842
6.3095730e+000;     157.9659;       0.0092;    -0.472523;     0.000004;     140.6564;     -71.8957;   3492681844
5.0118720e+000;     168.2747;       0.0110;    -0.458719;     0.000016;     150.8786;     -74.5120;   3492681846
3.9810720e+000;     178.6745;       0.0168;    -0.444692;     0.000013;     161.2972;     -76.8621;   3492681849
3.1622780e+000;     189.3142;       0.0167;    -0.430752;     0.000045;     172.0208;     -79.0489;   3492681851
2.5118860e+000;     200.0414;       0.0274;    -0.416947;     0.000043;     182.9038;     -81.0109;   3492681854
1.9952620e+000;     210.7860;       0.0634;    -0.403574;     0.000070;     193.8521;     -82.7774;   3492681858
1.5848930e+000;     221.6507;       0.0581;    -0.390659;     0.000055;     204.9511;     -84.4040;   3492681862
1.2589250e+000;     232.5505;       0.0923;    -0.378376;     0.000055;     216.1012;     -85.9070;   3492681866
1.0000000e+000;     243.3367;       0.0692;    -0.367040;     0.000101;     227.1290;     -87.3224;   3492681871
7.9432800e-001;     254.2914;       0.1449;    -0.356365;     0.000031;     238.3145;     -88.7146;   3492681876
5.0118700e-001;     276.7676;       0.3077;    -0.338690;     0.000010;     261.0447;     -91.9565;   3492681884
3.1622800e-001;     299.3747;       0.3691;    -0.325249;     0.000166;     283.6787;     -95.6638;   3492681896
1.9952600e-001;     322.7156;       0.6695;    -0.315304;     0.000580;     306.8065;    -100.0750;   3492681912
1.2589300e-001;     347.2799;       1.1121;    -0.312768;     0.000646;     330.4315;    -106.8562;   3492681938
7.9433000e-002;     373.4658;       1.3525;    -0.310104;     0.002053;     355.6523;    -113.9603;   3492681981
5.0119000e-002;     400.5199;       1.3617;    -0.315575;     0.000980;     380.7419;    -124.3039;   3492682042
3.1623000e-002;     430.2765;       1.3440;    -0.320613;     0.003017;     408.3490;    -135.5933;   3492682141
1.9953000e-002;     464.5928;       2.5995;    -0.325608;     0.006278;     440.1744;    -148.5795;   3492682294
1.2589000e-002;     502.2828;       3.8031;    -0.334533;     0.007040;     474.4320;    -164.8549;   3492682537
6.3100000e-003;     569.8588;       6.1358;    -0.341685;     0.008544;     536.9116;    -190.8326;   3492683015
2.5120000e-003;     680.8417;       7.8354;    -0.341698;     0.007914;     641.4810;    -228.0107;   3492684213
1.0000000e-003;     789.2483;      10.0546;    -0.333334;     0.008868;     745.8042;    -258.0507;   3492687215
1.5850000e-003;     696.2624;       1.7037;    -0.361576;     0.001236;     651.2426;    -246.2985;   3492689109
3.9810000e-003;     553.1186;       4.3023;    -0.376441;     0.001739;     514.3924;    -203.3195;   3492689866
1.0000000e-002;     438.2323;       4.1378;    -0.376931;     0.000919;     407.4690;    -161.2954;   3492690167
1.5849000e-002;     394.7813;       2.1733;    -0.373997;     0.000671;     367.4923;    -144.2272;   3492690361
2.5119000e-002;     354.9726;       1.1448;    -0.367586;     0.001069;     331.2583;    -127.5663;   3492690482
3.9811000e-002;     320.4056;       0.3993;    -0.361819;     0.000937;     299.6602;    -113.4164;   3492690562
6.3096000e-002;     288.0555;       1.2020;    -0.357188;     0.001725;     269.8751;    -100.7121;   3492690614
1.0000000e-001;     261.6791;       0.4633;    -0.350591;     0.000750;     245.7608;     -89.8751;   3492690646
1.5848900e-001;     236.6657;       0.9012;    -0.348872;     0.001115;     222.4090;     -80.8994;   3492690670
2.5118900e-001;     215.8465;       0.1976;    -0.346840;     0.001031;     202.9928;     -73.3724;   3492690683
3.9810700e-001;     195.9707;       0.1725;    -0.348831;     0.000423;     184.1679;     -66.9829;   3492690693
6.3095700e-001;     178.3606;       0.1270;    -0.353599;     0.000187;     167.3258;     -61.7622;   3492690699
1.0000000e+000;     161.9289;       0.0932;    -0.360865;     0.000175;     151.4994;     -57.1744;   3492690704
1.5848930e+000;     146.8156;       0.0553;    -0.370822;     0.000103;     136.8365;     -53.2034;   3492690708
2.5118860e+000;     132.6719;       0.0311;    -0.382437;     0.000065;     123.0874;     -49.5108;   3492690711
3.9810720e+000;     119.3909;       0.0220;    -0.395034;     0.000046;     110.1958;     -45.9464;   3492690714
6.3095730e+000;     106.9761;       0.0053;    -0.408570;     0.000032;      98.1709;     -42.5013;   3492690716
1.0000000e+001;      95.3733;       0.0036;    -0.422539;     0.000021;      86.9853;     -39.1104;   3492690718
1.5848932e+001;      84.6435;       0.0013;    -0.436244;     0.000014;      76.7162;     -35.7651;   3492690720
2.5118864e+001;      74.7641;       0.0003;    -0.448889;     0.000015;      67.3572;     -32.4450;   3492690722
3.9810717e+001;      65.7935;       0.0005;    -0.458773;     0.000015;      58.9903;     -29.1366;   3492690724
6.3095734e+001;      57.3699;       0.0035;    -0.467484;     0.000043;      51.2144;     -25.8533;   3492690725
1.0000000e+002;      50.2522;       0.0027;    -0.469086;     0.000008;      44.8240;     -22.7176;   3492690727
1.5848932e+002;      43.5705;       0.0007;    -0.471762;     0.000006;      38.8112;     -19.8009;   3492690729
2.5118864e+002;      37.8917;       0.0021;    -0.470053;     0.000028;      33.7821;     -17.1624;   3492690731
3.9810717e+002;      33.0506;       0.0015;    -0.463345;     0.000022;      29.5659;     -14.7717;   3492690733
6.3095734e+002;      28.6458;       0.0014;    -0.454844;     0.000041;      25.7334;     -12.5848;   3492690734
1.0000000e+003;      25.0205;       0.0018;    -0.436869;     0.000080;      22.6706;     -10.5863;   3492690736
1.5848932e+003;      21.8911;       0.0010;    -0.412647;     0.000037;      20.0536;      -8.7791;   3492690738
2.5118864e+003;      19.3440;       0.0005;    -0.380004;     0.000043;      17.9641;      -7.1752;   3492690740
3.9810717e+003;      17.2868;       0.0023;    -0.340290;     0.000052;      16.2955;      -5.7696;   3492690742
6.3095734e+003;      15.6291;       0.0016;    -0.294711;     0.000006;      14.9552;      -4.5397;   3492690743
1.0000000e+004;      14.3070;       0.0005;    -0.242777;     0.000080;      13.8875;      -3.4394;   3492690745
1.5848932e+004;      13.2781;       0.0010;    -0.183300;     0.000035;      13.0557;      -2.4203;   3492690747
2.5118864e+004;      12.4944;       0.0016;    -0.112057;     0.000059;      12.4161;      -1.3972;   3492690749
3.9810717e+004;      11.9467;       0.0006;    -0.022639;     0.000348;      11.9436;      -0.2704;   3492690751

             f;     Abs(Z12);     Phi(Z12);     Abs(Z34);     Phi(Z34);     Abs(Z14);     Phi(Z14);     Time [s]
4.5000000e+004;    1425.4431;    -0.002845;    1352.8153;    -0.025052;    2790.3064;    -0.013628;   3492681772
3.9810717e+004;    1427.3746;    -0.004477;    1354.0576;    -0.024035;    2793.6302;    -0.014099;   3492681774
3.1622777e+004;    1430.7366;    -0.007231;    1356.5401;    -0.022538;    2799.7778;    -0.015007;   3492681775
2.5118864e+004;    1433.9697;    -0.009704;    1359.1895;    -0.021536;    2805.9879;    -0.015997;   3492681777
1.9952623e+004;    1437.2039;    -0.012007;    1362.0045;    -0.020942;    2812.4079;    -0.017090;   3492681779
1.5848932e+004;    1440.5787;    -0.014211;    1365.0133;    -0.020692;    2819.1999;    -0.018295;   3492681781
1.2589254e+004;    1444.2041;    -0.016363;    1368.1956;    -0.020731;    2826.4657;    -0.019615;   3492681783
1.0000000e+004;    1448.1224;    -0.018492;    1371.5795;    -0.021014;    2834.2894;    -0.021047;   3492681784
7.9432823e+003;    1452.3616;    -0.020619;    1375.1849;    -0.021502;    2842.7133;    -0.022587;   3492681786
6.3095734e+003;    1456.9843;    -0.022760;    1379.0543;    -0.022168;    2851.8543;    -0.024234;   3492681788
5.0118723e+003;    1461.9987;    -0.024932;    1383.1621;    -0.022971;    2861.7079;    -0.025978;   3492681790
3.9810717e+003;    1467.4438;    -0.027150;    1387.5540;    -0.023890;    2872.3862;    -0.027821;   3492681792
3.1622777e+003;    1473.3317;    -0.029428;    1392.2493;    -0.024894;    2883.9120;    -0.029756;   3492681793
2.5118864e+003;    1479.6942;    -0.031782;    1397.2319;    -0.025950;    2896.3077;    -0.031777;   3492681795
1.9952623e+003;    1486.5224;    -0.034223;    1402.4776;    -0.027048;    2909.5719;    -0.033887;   3492681797
1.5848932e+003;    1493.8896;    -0.036766;    1407.9771;    -0.028158;    2923.7944;    -0.036079;   3492681799
1.2589254e+003;    1501.8062;    -0.039420;    1413.7272;    -0.029300;    2938.9708;    -0.038368;   3492681801
1.0000000e+003;    1510.2242;    -0.042194;    1419.6785;    -0.030473;    2955.0701;    -0.040759;   3492681802
7.9432823e+002;    1519.2734;    -0.045108;    1425.8176;    -0.031702;    2972.1584;    -0.043270;   3492681804
6.3095734e+002;    1529.0443;    -0.048181;    1432.1482;    -0.033026;    2990.2874;    -0.045934;   3492681806
5.0118723e+002;    1539.1794;    -0.051433;    1438.6362;    -0.034472;    3009.3366;    -0.048771;   3492681808
3.9810717e+002;    1550.1254;    -0.054897;    1445.3501;    -0.036092;    3029.5435;    -0.051825;   3492681810
3.1622777e+002;    1562.0702;    -0.058597;    1452.3098;    -0.037933;    3051.0904;    -0.055133;   3492681811
2.5118864e+002;    1574.3934;    -0.062572;    1459.5160;    -0.040044;    3073.7500;    -0.058739;   3492681813
1.9952623e+002;    1587.3694;    -0.066854;    1466.9992;    -0.042482;    3097.7450;    -0.062687;   3492681815
1.5848932e+002;    1601.7141;    -0.071468;    1474.9293;    -0.045310;    3123.5346;    -0.067023;   3492681817
1.2589254e+002;    1616.8669;    -0.076446;    1483.2996;    -0.048599;    3150.9742;    -0.071797;   3492681819
1.0000000e+002;    1632.3628;    -0.081834;    1492.1314;    -0.052431;    3180.0943;    -0.077065;   3492681820
7.9432823e+001;    1649.7439;    -0.087643;    1501.7245;    -0.056897;    3211.7954;    -0.082875;   3492681822
6.3095734e+001;    1668.2659;    -0.093922;    1512.1120;    -0.062060;    3245.9853;    -0.089266;   3492681824
5.0118723e+001;    1687.4239;    -0.100663;    1523.4077;    -0.068100;    3282.7155;    -0.096296;   3492681826
3.9810717e+001;    1708.8944;    -0.107916;    1535.9208;    -0.075035;    3323.0817;    -0.103988;   3492681828
3.1622777e+001;    1731.8351;    -0.115639;    1549.8123;    -0.083030;    3366.9674;    -0.112364;   3492681830
2.5118864e+001;    1756.4914;    -0.123903;    1565.2794;    -0.092100;    3414.8125;    -0.121443;   3492681831
1.9952623e+001;    1782.8496;    -0.132566;    1582.6163;    -0.102399;    3466.8809;    -0.131201;   3492681833
1.5848932e+001;    1811.0852;    -0.141742;    1601.9023;    -0.113823;    3523.3866;    -0.141627;   3492681835
1.2589254e+001;    1840.9730;    -0.151332;    1623.2862;    -0.126356;    3584.1927;    -0.152641;   3492681837
1.0000000e+001;    1872.5010;    -0.161411;    1646.6983;    -0.139751;    3649.1568;    -0.164162;   3492681839
7.9432820e+000;    1904.5157;    -0.171370;    1672.4248;    -0.154153;    3717.3702;    -0.175934;   3492681842
6.3095730e+000;    1936.8628;    -0.181360;    1700.0247;    -0.168735;    3788.1445;    -0.187666;   3492681844
5.0118720e+000;    1968.7487;    -0.190980;    1729.1223;    -0.182882;    3860.2144;    -0.198885;   3492681846
3.9810720e+000;    1999.4938;    -0.199821;    1759.3875;    -0.196015;    3932.3834;    -0.209133;   3492681849
3.1622780e+000;    2029.0374;    -0.207909;    1790.2780;    -0.207588;    4004.1610;    -0.218215;   3492681851
2.5118860e+000;    2057.9077;    -0.215481;    1821.1347;    -0.217338;    4075.2660;    -0.226133;   3492681854
1.9952620e+000;    2085.8760;    -0.223056;    1852.3773;    -0.225484;    4145.8249;    -0.233269;   3492681858
1.5848930e+000;    2115.5247;    -0.230116;    1882.4795;    -0.232644;    4216.9901;    -0.239647;   3492681862
1.2589250e+000;    2145.5897;    -0.237741;    1912.3218;    -0.239243;    4288.3106;    -0.246012;   3492681866
1.0000000e+000;    2175.3463;    -0.247022;    1943.7755;    -0.245159;    4360.7794;    -0.252873;   3492681871
7.9432800e-001;    2209.6421;    -0.255528;    1973.6380;    -0.252767;    4436.3179;    -0.260070;   3492681876
5.0118700e-001;    2279.3653;    -0.277723;    2042.3264;    -0.266626;    4597.8231;    -0.276461;   3492681884
3.1622800e-001;    2361.8324;    -0.302428;    2120.2269;    -0.286131;    4781.1548;    -0.296630;   3492681896
1.9952600e-001;    2473.5432;    -0.319470;    2203.5042;    -0.317674;    4999.7593;    -0.318410;   3492681912
1.2589300e-001;    2570.9248;    -0.342020;    2332.1011;    -0.340446;    5250.1725;    -0.339386;   3492681938
7.9433000e-002;    2700.8985;    -0.350307;    2440.5602;    -0.368467;    5514.2964;    -0.355621;   3492681981
5.0119000e-002;    2810.2903;    -0.363398;    2547.5804;    -0.391201;    5757.1795;    -0.372373;   3492682042
3.1623000e-002;    2929.3959;    -0.376861;    2678.1981;    -0.402810;    6036.4540;    -0.384364;   3492682141
1.9953000e-002;    3068.5120;    -0.391414;    2841.3648;    -0.402892;    6373.2567;    -0.391732;   3492682294
1.2589000e-002;    3221.2681;    -0.407531;    3015.8937;    -0.403943;    6738.2262;    -0.400481;   3492682537
6.3100000e-003;    3543.1404;    -0.430181;    3349.4720;    -0.413630;    7460.4830;    -0.415986;   3492683015
2.5120000e-003;    4289.4079;    -0.406249;    4072.6482;    -0.409450;    9041.4612;    -0.402820;   3492684213
1.0000000e-003;    4916.0849;    -0.310670;    4669.0015;    -0.318926;   10374.0668;    -0.316093;   3492687215
1.5850000e-003;    4508.7902;    -0.345597;    4204.0784;    -0.373717;    9408.2680;    -0.359343;   3492689109
3.9810000e-003;    3708.6861;    -0.407585;    3395.7208;    -0.456049;    7654.6849;    -0.426825;   3492689866
1.0000000e-002;    3063.9462;    -0.408524;    2680.9331;    -0.458109;    6180.7436;    -0.427784;   3492690167
1.5849000e-002;    2866.7157;    -0.405034;    2525.7875;    -0.442078;    5785.9324;    -0.419084;   3492690361
2.5119000e-002;    2714.5967;    -0.392583;    2394.1484;    -0.424423;    5462.8081;    -0.404912;   3492690482
3.9811000e-002;    2600.6967;    -0.374994;    2317.2896;    -0.395209;    5238.0637;    -0.383131;   3492690562
6.3096000e-002;    2478.2529;    -0.357946;    2258.3128;    -0.360384;    5024.6164;    -0.358997;   3492690614
1.0000000e-001;    2409.8141;    -0.331327;    2195.4397;    -0.320116;    4866.7856;    -0.327306;   3492690646
1.5848900e-001;    2341.8143;    -0.300863;    2096.7238;    -0.291585;    4674.8477;    -0.299131;   3492690670
2.5118900e-001;    2232.8680;    -0.281994;    2024.7527;    -0.251450;    4472.3248;    -0.271295;   3492690683
3.9810700e-001;    2175.0720;    -0.249252;    1935.0258;    -0.233100;    4304.8613;    -0.246518;   3492690693
6.3095700e-001;    2092.9739;    -0.228911;    1862.5014;    -0.213225;    4132.2280;    -0.227209;   3492690699
1.0000000e+000;    2027.5749;    -0.209695;    1796.9293;    -0.201048;    3984.5291;    -0.211916;   3492690704
1.5848930e+000;    1966.0943;    -0.197057;    1739.5774;    -0.188343;    3850.2239;    -0.199713;   3492690708
2.5118860e+000;    1911.2266;    -0.186199;    1687.3616;    -0.174547;    3728.6044;    -0.187864;   3492690711
3.9810720e+000;    1860.4755;    -0.174377;    1639.4759;    -0.160182;    3616.2834;    -0.175168;   3492690714
